time;C-temperature.inside;W-power.real.c.HEAT
0;18.498444189375988;0.0
60;18.49688981255405;2140.371857323844
120;18.49534238921987;2477.3084281165266
180;18.49380276065755;2829.2684214545766
240;18.49227180340412;3209.07712866754
300;18.490750462207888;3612.407468018553
360;18.489239738572657;4052.62959019887
420;18.487740725032392;4507.993092292406
480;18.486254548624274;4991.278468643517
540;18.484782403734464;5505.8922582880605
600;18.483325560608872;6050.110235220429
660;18.481885360584023;6627.421074202819
720;18.480463224794114;7244.437375456289
780;18.479060670905486;7500.0
840;18.47767827718426;7500.0
900;18.476315959771952;7500.0
960;18.474973635152736;7500.0
1020;18.473651220152032;7500.0
1080;18.472348631935127;7500.0
1140;18.471065788005777;7500.0
1200;18.46980260620483;7500.0
1260;18.468559004708844;7500.0
1320;18.467334902028718;7500.0
1380;18.46613021700833;7500.0
1440;18.464944868823178;7500.0
1500;18.463778776979016;7500.0
1560;18.46263186131051;7500.0
1620;18.4615040419799;7500.0
1680;18.46039523947566;7500.0
1740;18.459305374611155;7500.0
1800;18.458234368523332;7500.0
1860;18.457182142671385;7500.0
1920;18.456148618835442;7500.0
1980;18.455133719115253;7500.0
2040;18.45413736592889;7500.0
2100;18.45317922924683;7500.0
2160;18.452264743147165;7500.0
2220;18.451368531307338;7500.0
2280;18.45049051755993;7500.0
2340;18.449630626048773;7500.0
2400;18.448788781227655;7500.0
2460;18.447964907859085;7500.0
2520;18.44715893101301;7500.0
2580;18.446370776065567;7500.0
2640;18.44560036869783;7500.0
2700;18.444847634894565;7500.0
2760;18.444112500943;7500.0
2820;18.44339489343157;7500.0
2880;18.442674992013316;7500.0
2940;18.441947212848152;7500.0
3000;18.441236783108607;7500.0
3060;18.440543630421555;7500.0
3120;18.439867682709615;7500.0
3180;18.43920886818994;7500.0
3240;18.438567115373022;7500.0
3300;18.43794235306148;7500.0
3360;18.437334510348883;7500.0
3420;18.43674351661855;7500.0
3480;18.43616930154237;7500.0
3540;18.435611795079634;7500.0
3600;18.435083269497955;7500.0
3660;18.434572128847105;7500.0
3720;18.43407747630631;7500.0
3780;18.433599243017742;7500.0
3840;18.433137360404956;7500.0
3900;18.432691760171746;7500.0
3960;18.432262374301;7500.0
4020;18.43184913505356;7500.0
4080;18.431451974967086;7500.0
4140;18.431070826854928;7500.0
4200;18.430705623804997;7500.0
4260;18.430356299178644;7500.0
4320;18.43002278660955;7500.0
4380;18.429705020002597;7500.0
4440;18.42940293353278;7500.0
4500;18.429116461644096;7500.0
4560;18.428845539048435;7500.0
4620;18.428590100724502;7500.0
4680;18.42835008191672;7500.0
4740;18.42812541813414;7500.0
4800;18.427916045149377;7500.0
4860;18.427721898997508;7500.0
4920;18.42754291597502;7500.0
4980;18.427379032638743;7500.0
5040;18.427230185804767;7500.0
5100;18.427096312547405;7500.0
5160;18.426997097433514;7500.0
5220;18.42691271261665;7500.0
5280;18.426843096007204;7500.0
5340;18.4268134622306;7500.0
5400;18.42679844994814;7500.0
5460;18.426797997915056;7500.0
5520;18.426812045136874;7500.0
5580;18.4268405308684;7500.0
5640;18.42688339461269;7500.0
5700;18.426940576120046;7500.0
5760;18.427012015386996;7500.0
5820;18.4270976526553;7500.0
5880;18.427197428410935;7500.0
5940;18.427291536147727;7500.0
6000;18.427399682271137;7500.0
6060;18.427521807926105;7500.0
6120;18.42763257803681;7500.0
6180;18.427757233983826;7500.0
6240;18.42789571754404;7500.0
6300;18.42804797073229;7500.0
6360;18.4282139358004;7500.0
6420;18.4283935552362;7500.0
6480;18.428586771762582;7500.0
6540;18.42879352833651;7500.0
6600;18.429013768148092;7500.0
6660;18.429247434619615;7500.0
6720;18.4294944714046;7500.0
6780;18.429754822386855;7500.0
6840;18.43002843167953;7500.0
6900;18.4303152436242;7500.0
6960;18.430615202789905;7500.0
7020;18.430928253972237;7500.0
7080;18.431254342192414;7500.0
7140;18.43159341269636;7500.0
7200;18.43192072690954;7500.0
7260;18.432259283486093;7500.0
7320;18.43261068361097;7500.0
7380;18.43297487332975;7500.0
7440;18.43335179890853;7500.0
7500;18.43374140683302;7500.0
7560;18.43414364380765;7500.0
7620;18.434558456754683;7500.0
7680;18.43498579281331;7500.0
7740;18.435425599338785;7500.0
7800;18.435877823901517;7500.0
7860;18.436342414286216;7500.0
7920;18.436819318490997;7500.0
7980;18.437308484726525;7500.0
8040;18.437809861415136;7500.0
8100;18.43832339718998;7500.0
8160;18.43884904089415;7500.0
8220;18.439406488815226;7500.0
8280;18.439975924779613;7500.0
8340;18.44055729832287;7500.0
8400;18.44115055918682;7500.0
8460;18.44175565731871;7500.0
8520;18.44239781933166;7500.0
8580;18.443051695825705;7500.0
8640;18.443717237446048;7500.0
8700;18.44439439503963;7500.0
8760;18.445083119654296;7500.0
8820;18.445783362537984;7500.0
8880;18.4464950751379;7500.0
8940;18.44721820909971;7500.0
9000;18.44793296903134;7500.0
9060;18.44865907240696;7500.0
9120;18.44939647139502;7500.0
9180;18.450145118359462;7500.0
9240;18.450904965858957;7500.0
9300;18.451650690184792;7500.0
9360;18.452407544038223;7500.0
9420;18.453175480470577;7500.0
9480;18.45395445272509;7500.0
9540;18.454744414236117;7500.0
9600;18.455545318628353;7500.0
9660;18.456357119716053;7500.0
9720;18.457179771502265;7500.0
9780;18.45801322817805;7500.0
9840;18.458857444121723;7500.0
9900;18.45971237389808;7500.0
9960;18.460577972257635;7500.0
10020;18.46145419413588;7500.0
10080;18.4623409946525;7500.0
10140;18.46323832911065;7500.0
10200;18.46414615299618;7500.0
10260;18.46506442197691;7500.0
10320;18.465993091901872;7500.0
10380;18.466932118800585;7500.0
10440;18.4678814588823;7500.0
10500;18.468841068535273;7500.0
10560;18.469810904326042;7500.0
10620;18.47079092299869;7500.0
10680;18.471781081474123;7500.0
10740;18.47278133684934;7500.0
10800;18.473803988418844;7500.0
10860;18.474837467148905;7500.0
10920;18.475880903025313;7500.0
10980;18.476934253887315;7500.0
11040;18.477997477746502;7500.0
11100;18.47907053278612;7500.0
11160;18.480153377360356;7500.0
11220;18.481245969993637;7500.0
11280;18.482368016615336;7500.0
11340;18.483499710654275;7500.0
11400;18.48464101120921;7500.0
11460;18.485791877546102;7500.0
11520;18.48695226909744;7500.0
11580;18.48812214546155;7500.0
11640;18.489301466401926;7500.0
11700;18.49051546830785;7500.0
11760;18.49173881151558;7500.0
11820;18.49297145636679;7500.0
11880;18.494213363365272;7500.0
11940;18.4954644931763;7500.0
12000;18.49672480662595;7500.0
12060;18.497974517465064;7500.0
12120;18.49923335227339;7500.0
12180;18.500501272287757;7500.0
12240;18.501778238903466;0.0
12300;18.503044853638954;0.0
12360;18.504301159314416;0.0
12420;18.505547198575105;0.0
12480;18.506757737430746;0.0
12540;18.507958117934397;0.0
12600;18.509148382124046;0.0
12660;18.510328571865927;0.0
12720;18.51149872885523;0.0
12780;18.5126588946168;0.0
12840;18.51380911050582;0.0
12900;18.51494941770853;0.0
12960;18.516079857242875;0.0
13020;18.517200469959242;0.0
13080;18.518311296541103;0.0
13140;18.519412377505724;0.0
13200;18.520503753204828;0.0
13260;18.521585463825275;0.0
13320;18.52265754938974;0.0
13380;18.523720049757383;0.0
13440;18.524773004624507;0.0
13500;18.525816453525234;0.0
13560;18.526850435832166;0.0
13620;18.52787499075704;0.0
13680;18.528890157351388;0.0
13740;18.529895974507188;0.0
13800;18.53089248095752;0.0
13860;18.531879715277213;0.0
13920;18.532857715883498;0.0
13980;18.533826521036634;0.0
14040;18.53478616884057;0.0
14100;18.535736697243568;0.0
14160;18.53667814403885;0.0
14220;18.537610546865217;0.0
14280;18.5385339432077;0.0
14340;18.539468117633554;0.0
14400;18.540405683910222;0.0
14460;18.541335152652106;0.0
14520;18.542255733167625;0.0
14580;18.543167462294466;0.0
14640;18.54407037671981;0.0
14700;18.54496451298094;0.0
14760;18.545849907465865;0.0
14820;18.546726596413915;0.0
14880;18.547619892377657;0.0
14940;18.548504531545355;0.0
15000;18.549380549800674;0.0
15060;18.550247982880666;0.0
15120;18.55108711914099;0.0
15180;18.551917759461297;0.0
15240;18.55273993907464;0.0
15300;18.55355369307013;0.0
15360;18.554359056393498;0.0
15420;18.555156063847708;0.0
15480;18.55594475009352;0.0
15540;18.556725149650074;0.0
15600;18.557497296895473;0.0
15660;18.558235949606065;0.0
15720;18.558966441635146;0.0
15780;18.55968880685444;0.0
15840;18.56040307899727;0.0
15900;18.561109291659125;0.0
15960;18.561807478298242;0.0
16020;18.562497672236137;0.0
16080;18.563179906658185;0.0
16140;18.563854214614164;0.0
16200;18.564520629018816;0.0
16260;18.565179182652397;0.0
16320;18.565829908161227;0.0
16380;18.566472838058232;0.0
16440;18.567108004723494;0.0
16500;18.56773544040479;0.0
16560;18.568355177218134;0.0
16620;18.568967247148322;0.0
16680;18.569571682049453;0.0
16740;18.570168513645477;0.0
16800;18.570757773530715;0.0
16860;18.5713394931704;0.0
16920;18.571913703901192;0.0
16980;18.572480436931713;0.0
17040;18.57303972334307;0.0
17100;18.57359159408936;0.0
17160;18.57413607999822;0.0
17220;18.574673211771305;0.0
17280;18.575203019984837;0.0
17340;18.57572553509009;0.0
17400;18.576260534649307;0.0
17460;18.57678828343141;0.0
17520;18.577308811583663;0.0
17580;18.577822149130157;0.0
17640;18.5783283259723;0.0
17700;18.57882737188932;0.0
17760;18.57931931653877;0.0
17820;18.57980418945701;0.0
17880;18.580282020059727;0.0
17940;18.580752837642397;0.0
18000;18.58125369744715;0.0
18060;18.581775325549504;0.0
18120;18.582289968226124;0.0
18180;18.582777907282942;0.0
18240;18.58325893707664;0.0
18300;18.583733086343948;0.0
18360;18.58420038370418;0.0
18420;18.584660857659706;0.0
18480;18.58511453659644;0.0
18540;18.585561448784297;0.0
18600;18.586001622377687;0.0
18660;18.58643508541597;0.0
18720;18.586861865823945;0.0
18780;18.587281991412294;0.0
18840;18.58767021341677;0.0
18900;18.588051859176797;0.0
18960;18.58842695607682;0.0
19020;18.58879553138939;0.0
19080;18.589157612275617;0.0
19140;18.589513225785623;0.0
19200;18.589862398858994;0.0
19260;18.59020515832524;0.0
19320;18.590541530904236;0.0
19380;18.59087154320667;0.0
19440;18.591195221734502;0.0
19500;18.591512592881386;0.0
19560;18.59182368293313;0.0
19620;18.592128518068126;0.0
19680;18.592427124357805;0.0
19740;18.59271952776705;0.0
19800;18.593005754154646;0.0
19860;18.593285829273714;0.0
19920;18.59355977877214;0.0
19980;18.593827628192997;0.0
20040;18.59408940297499;0.0
20100;18.594345128452865;0.0
20160;18.594594829857844;0.0
20220;18.594838532318043;0.0
20280;18.595076260858896;0.0
20340;18.595308040403573;0.0
20400;18.5955338957734;0.0
20460;18.595773598923657;0.0
20520;18.596007409039203;0.0
20580;18.59623535070606;0.0
20640;18.59645744840978;0.0
20700;18.596673726535858;0.0
20760;18.596884209370142;0.0
20820;18.597088921099232;0.0
20880;18.597287885810893;0.0
20940;18.59748112749446;0.0
21000;18.597668670041237;0.0
21060;18.59785053724489;0.0
21120;18.59802675280186;0.0
21180;18.59819734031175;0.0
21240;18.598367852503632;0.0
21300;18.5985327784631;0.0
21360;18.598692141520583;0.0
21420;18.59884596491118;0.0
21480;18.598994271775034;0.0
21540;18.59913708515772;0.0
21600;18.599286770032762;0.0
21660;18.59943182277699;0.0
21720;18.599571438519398;0.0
21780;18.599705639976168;0.0
21840;18.59983444977065;0.0
21900;18.599957890433743;0.0
21960;18.600075984404267;0.0
22020;18.600163477568056;0.0
22080;18.60024569193646;0.0
22140;18.600322649587618;0.0
22200;18.600394372509438;0.0
22260;18.60046088259998;0.0
22320;18.600522201667804;0.0
22380;18.60057835143235;0.0
22440;18.6006293535243;0.0
22500;18.600675229485933;0.0
22560;18.600716000771495;0.0
22620;18.60075168874755;0.0
22680;18.600782314693344;0.0
22740;18.60080789980116;0.0
22800;18.60082846517668;0.0
22860;18.60084403183932;0.0
22920;18.6008546207226;0.0
22980;18.60086025267449;0.0
23040;18.60086094845776;0.0
23100;18.600856728750326;0.0
23160;18.600847614145593;0.0
23220;18.600833625152806;0.0
23280;18.600814782197393;0.0
23340;18.600791105621308;0.0
23400;18.60076261568337;0.0
23460;18.6007293325596;0.0
23520;18.60071102357895;0.0
23580;18.600687943318842;0.0
23640;18.600660111776687;0.0
23700;18.60062754886816;0.0
23760;18.60059027442755;0.0
23820;18.60054830820808;0.0
23880;18.600501669882245;0.0
23940;18.600450379042144;0.0
24000;18.600394455199798;0.0
24060;18.60033391778749;0.0
24120;18.600268786158082;0.0
24180;18.60019907958534;0.0
24240;18.60012481726426;0.0
24300;18.600026271076;0.0
24360;18.599923225493;0.0
24420;18.599840975869416;0.0
24480;18.599754241265344;0.0
24540;18.599663040506247;0.0
24600;18.59956739234064;0.0
24660;18.599467315440414;0.0
24720;18.599362828401155;0.0
24780;18.599253949742437;0.0
24840;18.599140697908148;0.0
24900;18.599023091266794;0.0
24960;18.59890114811181;0.0
25020;18.598774886661857;0.0
25080;18.59864432506114;0.0
25140;18.598509481379708;0.0
25200;18.5983821232188;0.0
25260;18.598252988814266;0.0
25320;18.598119613023144;0.0
25380;18.59798201367052;0.0
25440;18.597840208508632;0.0
25500;18.59769421521715;0.0
25560;18.597544051403492;0.0
25620;18.597389734603112;0.0
25680;18.59723128227979;0.0
25740;18.597068711825926;0.0
25800;18.59690204056284;0.0
25860;18.596731285741047;0.0
25920;18.596556464540562;0.0
25980;18.59637759407118;0.0
26040;18.59619469137276;0.0
26100;18.596007773415515;0.0
26160;18.5958168571003;0.0
26220;18.59562195925888;0.0
26280;18.59542309665424;0.0
26340;18.595220285980837;0.0
26400;18.59501354386489;0.0
26460;18.594802886864674;0.0
26520;18.59458833147077;0.0
26580;18.59438964134175;0.0
26640;18.59418706739965;0.0
26700;18.593980626001414;0.0
26760;18.593770333437135;0.0
26820;18.59355620593032;0.0
26880;18.59333825963816;0.0
26940;18.59311651065181;0.0
27000;18.592890974996656;0.0
27060;18.592661668632577;0.0
27120;18.592428607454213;0.0
27180;18.592191807291243;0.0
27240;18.59195128390864;0.0
27300;18.591707053006935;0.0
27360;18.5914393829871;0.0
27420;18.5911680548556;0.0
27480;18.590893084053477;0.0
27540;18.59061448595866;0.0
27600;18.590357552347516;0.0
27660;18.590096998716966;0.0
27720;18.589832840343846;0.0
27780;18.58956509244254;0.0
27840;18.589293770165256;0.0
27900;18.589018888602254;0.0
27960;18.588740462782113;0.0
28020;18.588458507671984;0.0
28080;18.588173038177835;0.0
28140;18.587884069144707;0.0
28200;18.587591615356953;0.0
28260;18.587295691538497;0.0
28320;18.586996312353076;0.0
28380;18.586668215943188;0.0
28440;18.58633671660848;0.0
28500;18.58600182874688;0.0
28560;18.585663566697466;0.0
28620;18.585321944740695;0.0
28680;18.584976977098652;0.0
28740;18.584628677935278;0.0
28800;18.584338771467202;0.0
28860;18.5840496393389;0.0
28920;18.58375715736528;0.0
28980;18.583461339705124;0.0
29040;18.583162200459338;0.0
29100;18.582859753671187;0.0
29160;18.582554013326533;0.0
29220;18.58224499335406;0.0
29280;18.581932707625523;0.0
29340;18.581617169955965;0.0
29400;18.581298394103964;0.0
29460;18.580976393771845;0.0
29520;18.580651182605926;0.0
29580;18.58032277419674;0.0
29640;18.58001092931465;0.0
29700;18.57969589600528;0.0
29760;18.57937768776092;0.0
29820;18.579056318018708;0.0
29880;18.578731800160845;0.0
29940;18.57840414751483;0.0
30000;18.578073373353686;0.0
30060;18.577739490896167;0.0
30120;18.577402513307;0.0
30180;18.57706245369709;0.0
30240;18.576719325123744;0.0
30300;18.576373140590896;0.0
30360;18.576023913049315;0.0
30420;18.575651908161444;0.0
30480;18.575276904206405;0.0
30540;18.574917221597598;0.0
30600;18.574554855701393;7500.0
30660;18.574209490436008;7500.0
30720;18.57388105698603;7500.0
30780;18.573594763240884;7500.0
30840;18.573325241124927;7500.0
30900;18.57307242266211;7500.0
30960;18.57283624013719;7500.0
31020;18.572624188801992;7500.0
31080;18.572428211319473;7500.0
31140;18.5722482968871;7500.0
31200;18.572084425168566;7500.0
31260;18.57193656840623;7500.0
31320;18.571804693001248;7500.0
31380;18.57168876071284;7500.0
31440;18.571588729580572;7500.0
31500;18.57150455464217;7500.0
31560;18.571410912037027;7500.0
31620;18.57133305213322;7500.0
31680;18.57127092382847;7500.0
31740;18.571224474684016;7500.0
31800;18.571193651162048;7500.0
31860;18.571178398820727;7500.0
31920;18.571178662475376;7500.0
31980;18.571194386332596;7500.0
32040;18.571225514102483;7500.0
32100;18.57127198909303;7500.0
32160;18.57133375428995;7500.0
32220;18.571410752424477;7500.0
32280;18.571502926031236;7500.0
32340;18.571610217497796;7500.0
32400;18.57183130528424;7500.0
32460;18.572073919759838;7500.0
32520;18.57233138202268;7500.0
32580;18.572603634604455;7500.0
32640;18.572890619348062;7500.0
32700;18.57321202686547;7500.0
32760;18.573548034449257;7500.0
32820;18.573898584969065;7500.0
32880;18.57426362138397;7500.0
32940;18.574643086755263;7500.0
33000;18.575036924257752;7500.0
33060;18.57544507718982;7500.0
33120;18.575867488982304;7500.0
33180;18.57630410320641;7500.0
33240;18.576754863580724;7500.0
33300;18.577219713977442;7500.0
33360;18.577698598427904;7500.0
33420;18.578191461127524;7500.0
33480;18.578678499204774;7500.0
33540;18.579179422629867;7500.0
33600;18.579694176047028;7500.0
33660;18.580222704279603;7500.0
33720;18.58076495233278;7500.0
33780;18.58132086539598;7500.0
33840;18.581890388844993;7500.0
33900;18.58247346824384;7500.0
33960;18.583095325807722;7500.0
34020;18.583730607726316;7500.0
34080;18.58437926022414;7500.0
34140;18.58504122971903;7500.0
34200;18.58584931262532;7500.0
34260;18.586608250119358;7500.0
34320;18.587380448327192;7500.0
34380;18.58816585408767;7500.0
34440;18.588964414455152;7500.0
34500;18.589776076698787;7500.0
34560;18.590600788301792;7500.0
34620;18.59143849696072;7500.0
34680;18.59228915058473;7500.0
34740;18.593127420833536;7500.0
34800;18.593978556003837;7500.0
34860;18.594849688032067;7500.0
34920;18.595733568219494;7500.0
34980;18.596630145366746;7500.0
35040;18.597539368483307;7500.0
35100;18.598935120436053;7500.0
35160;18.600342972395357;7500.0
35220;18.601288941983903;7500.0
35280;18.60224735892734;7500.0
35340;18.603218173254685;7500.0
35400;18.6042013351993;7500.0
35460;18.60519679519812;7500.0
35520;18.60620450389089;7500.0
35580;18.607224412119415;7500.0
35640;18.608256470926783;7500.0
35700;18.60930063155661;7500.0
35760;18.610376592687675;7500.0
35820;18.611610608622023;7500.0
35880;18.612786905346287;7500.0
35940;18.61397501143648;7500.0
36000;18.615236589480247;7500.0
36060;18.616526361947187;7500.0
36120;18.617827727957092;7500.0
36180;18.61914064084125;7500.0
36240;18.620465054122686;7500.0
36300;18.62180092151545;7500.0
36360;18.62314819692386;7500.0
36420;18.624506834441775;7500.0
36480;18.625876788351864;7500.0
36540;18.62723826588949;7500.0
36600;18.62861098763665;7500.0
36660;18.629994908369426;7500.0
36720;18.63138998305007;7500.0
36780;18.632796166826303;7500.0
36840;18.634213415030597;7500.0
36900;18.63564168317945;7500.0
36960;18.637080926972683;7500.0
37020;18.638531102292717;7500.0
37080;18.63999216520387;7500.0
37140;18.641489348412957;7500.0
37200;18.642997307963384;7500.0
37260;18.64451600054883;7500.0
37320;18.646045383041702;7500.0
37380;18.64758541249245;7500.0
37440;18.649136046128866;7500.0
37500;18.650697241355406;7500.0
37560;18.652268955752497;7500.0
37620;18.653851147075862;7500.0
37680;18.655443773255836;7500.0
37740;18.657046792396685;7500.0
37800;18.658660162775934;7500.0
37860;18.6602833306574;7500.0
37920;18.661890978978843;7500.0
37980;18.663508367677395;7500.0
38040;18.665135456374987;7500.0
38100;18.666772204848954;7500.0
38160;18.668418573031786;7500.0
38220;18.670074521010864;7500.0
38280;18.671740009028184;7500.0
38340;18.673414997480073;7500.0
38400;18.67509944691688;7500.0
38460;18.67679331804267;7500.0
38520;18.678496571714884;7500.0
38580;18.680209168944025;7500.0
38640;18.681931070893295;7500.0
38700;18.68366223887825;7500.0
38760;18.685402634366426;7500.0
38820;18.687171966212375;7500.0
38880;18.68895043026259;7500.0
38940;18.69073798850698;7500.0
39000;18.692534603085633;7500.0
39060;18.69434023628841;7500.0
39120;18.696154850554557;7500.0
39180;18.697978408472274;7500.0
39240;18.69981087277832;7500.0
39300;18.70165220635758;7500.0
39360;18.703502372242646;7500.0
39420;18.705361333613382;7500.0
39480;18.7072290537965;7500.0
39540;18.709105496265114;7500.0
39600;18.711044929535618;7500.0
39660;18.713012807053456;7500.0
39720;18.714989228163606;7500.0
